Time [h],SOC,SOH,Temperature (°C),Resistance (Ohm)
0.0,0.9799999999999996,100.00000000000003,24.999999999999886,0.0010621650669636771
0.016666666666666666,0.9724433082194336,99.97566986607266,25.156971163421417,0.0010814364420869372
0.03333333333333333,0.9680477189921157,99.95037520764419,25.310166080601505,0.0011010181673596511
0.05,0.9640085688846732,99.92492633197246,25.458318656620747,0.0011205828883333725
0.06666666666666667,0.9600754109011473,99.89956554226357,25.601680237013568,0.0011400396698233648
0.08333333333333333,0.9561779974133847,99.87441283207582,25.740598913309498,0.0011593441924510296
0.1,0.9522942953165148,99.84954164133656,25.875422811947146,0.0011784714177059342
0.11666666666666667,0.9484177654077911,99.82499736369388,26.006455403106656,0.0011974065585707606
0.13333333333333333,0.9445466162388755,99.8008074137256,26.133964760770994,0.001216141670379988
0.15,0.9406804634540955,99.77698657394197,26.258189478692145,0.001234672769300497
0.16666666666666666,0.9368193080162833,99.75354403157938,26.37931582268544,0.0012529997409889584
0.18333333333333332,0.9329630871446261,99.73047237355226,26.497595487220508,0.0012711291195633598
0.2,0.9291118312729477,99.7077705966073,26.61317067438381,0.0012890626665733403
0.21666666666666667,0.9252654798700494,99.6854309993262,26.7262092099092,0.0013068063035094734
0.23333333333333334,0.9214239215917585,99.66344396320633,26.836866047010858,0.0013243667289970504
0.25,0.917586998605698,99.64179861596573,26.945287635777333,0.001341751284353657
0.26666666666666666,0.913754518958316,99.62048339769794,27.051613104623755,0.0013589677365842012
0.2833333333333333,0.9099262654372249,99.59948642369038,27.15597335579622,0.0013760240223544197
0.3,0.906102001510587,99.57879576861535,27.258489412406618,0.001392927555647136
0.31666666666666665,0.9022814958238285,99.55840124520599,27.35926207850713,0.0014096858450393073
0.3333333333333333,0.8984644389437152,99.53828807639725,27.4584086279188,0.0014263074835217445
0.35,0.8946505772416604,99.5184470015347,27.556003974888313,0.001442797956937668
0.36666666666666664,0.890839617732494,99.49886721122186,27.65212479501247,0.0014591634353078894
0.38333333333333336,0.8870312606214921,99.4795384373422,27.74683838300706,0.001475409559041551
0.4,0.8832252002974141,99.46045088277785,27.84020558648416,0.0014915416093157162
0.4166666666666667,0.8794211293033078,99.44159516616993,27.93228357022423,0.0015075646574255553
0.43333333333333335,0.8756187415866554,99.42296233428222,28.023126838228166,0.0015234836062606163
0.45,0.8718177355484579,99.40454385347414,28.112787969521435,0.0015393026591031193
0.4666666666666667,0.8680178279230576,99.38633359621551,28.201306874324757,0.0015550264183493223
0.48333333333333334,0.8642187043094527,99.3683195734558,28.28875601999715,0.0015706613736317478
0.5,0.8604201139259123,99.35049679359848,28.3751693018051,0.0015811610377520612
0.5000000000002778,0.8604201139259123,99.35049679359848,28.3751693018051,0.0015863230839139979
0.5166666666666667,0.8580216418338219,99.33246465294906,28.43091940420487,0.0016001126344495997
0.5333333333333333,0.8550350696496,99.31467857392605,28.485377983877186,0.001613734752597899
0.55,0.8519843038907363,99.2971220280798,28.539149743798646,0.0016272335614620427
0.5666666666666667,0.8489157264198426,99.27978421163864,28.59235111820999,0.0016406206980062038
0.5833333333333334,0.8458423743355998,99.26265575544025,28.645020126460793,0.0016539023288743707
0.6,0.8427681855896436,99.24572803356924,28.69718090668448,0.0016670834526053013
0.6166666666666667,0.8396943178761636,99.22899299326392,28.74885387514246,0.0016801686123837757
0.6333333333333333,0.8366210687514284,99.21244305803401,28.80005772460163,0.0016931620477017217
0.65,0.833548354644926,99.19607111604157,28.85080975416139,0.0017060677228343585
0.6666666666666666,0.8304760482043175,99.17987048195235,28.90112618416623,0.0017188856644971102
0.6833333333333333,0.8274040531639978,99.16384751336071,28.950989928635124,0.0017316202879885001
0.7,0.824332210561652,99.14797288639915,29.00047489177831,0.0017442834285412412
0.7166666666666667,0.8212604121749767,99.13224914011207,29.049573786262215,0.0017568736944213736
0.7333333333333333,0.8181885675560021,99.11667347487206,29.098293028998796,0.0017693928118398708
0.75,0.8151165822511687,99.10124106679481,29.14664414070785,0.001781843385052844
0.7666666666666667,0.8120443731950238,99.08594747235108,29.194637709027973,0.0017942278867091057
0.7833333333333333,0.8089718590920952,99.07078824679357,29.24228428321453,0.0018065488565548063
0.8,0.8058989590800031,99.05575885757118,29.28959457205673,0.0018188088575206967
0.8166666666666667,0.8028256001031855,99.04085496554013,29.336578735786873,0.0018310070262995903
0.8333333333333334,0.799751670206281,99.02608357028784,29.383217363109168,0.0018431460252935526
0.85,0.7966772026032648,99.01142133862868,29.429570300640762,0.00185523565193234
0.8666666666666667,0.7936021174047165,98.99687079285269,29.47562989435744,0.0018672740721519874
0.8833333333333333,0.7905263563674518,98.98243141524188,29.521396416715106,0.001879261720990849
0.9,0.7874498874960586,98.96810005803792,29.56687717103864,0.001891200317097809
0.9166666666666666,0.7843726747002349,98.95387370607223,29.61207899686582,0.0019030914445468357
0.9333333333333333,0.781294689368025,98.93974963820158,29.657008052352296,0.0019149365309240574
0.95,0.7782159049988099,98.92572527612433,29.70167016509481,0.0019267370844129911
0.9666666666666667,0.7751362918404537,98.91179762820175,29.746072063205418,0.0019384918650076118
0.9833333333333333,0.7720557356132085,98.8979735160652,29.790193939048095,0.001950202637339952
1.0,0.7689743761886304,98.8842333195145,29.834087763507057,0.0019618779226934753
1.0166666666666666,0.7658921489279874,98.87057981234011,29.87774490463744,0.0019735156281788656
1.0333333333333334,0.7628090131088215,98.85701326322588,29.92116349187671,0.0019851156650254652
1.05,0.7597249623749083,98.84353152611581,29.964348518765348,0.0019966791860139407
1.0666666666666667,0.7566399849738182,98.83013256843176,30.00730453972568,0.002008207216310947
1.0833333333333333,0.7535540722372529,98.8168146090324,30.050035598454826,0.002019700723733564
1.1,0.7504672156640126,98.80357572535999,30.09254609683694,0.0020311607036676664
1.1166666666666667,0.7473794073321622,98.79041419028991,30.13483999019587,0.002042585552120207
1.1333333333333333,0.7442905260693052,98.77733648777608,30.176897981986485,0.002053976394409688
1.15,0.7412007598345197,98.7643259105308,30.218766471930792,0.002065340934183282
1.1666666666666667,0.7381100546625654,98.75138481906944,30.26043835178632,0.0020766770457199503
1.1833333333333333,0.735018366484605,98.73851460837007,30.30190934098715,0.0020879840770485826
1.2,0.7319256915531268,98.7257135552754,30.343184168169557,0.002095323693826986
1.200000000000278,0.7319256915531268,98.7257135552754,30.343184168169557,0.0020993003914924315
1.2166666666666666,0.7302712044993056,98.71285931813739,30.363629343997616,0.002108914870623124
1.2333333333333334,0.7280097076520808,98.70009318596765,30.383393421038136,0.0021184329562061793
1.25,0.7256805787042551,98.68741229400179,30.402969490272596,0.002127896375801965
1.2666666666666666,0.7233317876363824,98.67481469703384,30.422436528921992,0.0021373125727490237
1.2833333333333334,0.7209768451774655,98.66229865012069,30.441810333431874,0.002146683708508786
1.3,0.7186200867675675,98.64986249755185,30.461097275615714,0.0021560111251744314
1.3166666666666667,0.7162627006342576,98.63750465697905,30.480301696764684,0.00216529596185579
1.3333333333333333,0.713905135891539,98.62522361324703,30.49942801703361,0.0021745393330666286
1.35,0.7115475274812239,98.6130179157619,30.518480844124042,0.0021837423399753966
1.3666666666666667,0.709189888714266,98.60088617446318,30.537465247261196,0.002192904837184451
1.3833333333333333,0.7068321578412776,98.58883109558869,30.556383520556665,0.0022020289679652435
1.4,0.7044743555807734,98.5768432067623,30.575248929219867,0.002211117800712248
1.4166666666666667,0.7021164482887974,98.56492532204055,30.594066025532243,0.002220171032709892
1.4333333333333333,0.6997584146964702,98.55307641706497,30.612841976629852,0.002229189844466132
1.45,0.6974002322099924,98.54129530665193,30.631585707265003,0.0022381755743282644
1.4666666666666666,0.6950418814040473,98.52958099219359,30.650305862838593,0.00224712953680206
1.4833333333333334,0.692683339856278,98.51793233205073,30.669013455006052,0.002256053291693901
1.5,0.6903245863163836,98.5063482547847,30.687719519015047,0.0022649483878888796
1.5166666666666666,0.6879655997950364,98.49482771425718,30.706435433181355,0.0022738160677921856
1.5333333333333334,0.6856063558525155,98.48337076623059,30.725173465383136,0.0022826582871320754
1.55,0.6832468422056327,98.47197439680059,30.7439449529939,0.002291476932183699
1.5666666666666667,0.6808870359612983,98.46063867782678,30.762761575704587,0.002300273259174357
1.5833333333333333,0.678526916904403,98.44936275242415,30.78163511527265,0.0023090488589777806
1.6,0.6761664641269926,98.4381457089307,30.80057758203958,0.002317805365181634
1.6166666666666667,0.6738056571604918,98.42698667404471,30.81960028219828,0.0023265443357973294
1.6333333333333333,0.6714444757218668,98.41588482708315,30.838713825641662,0.002335267260029665
1.65,0.6690828990677351,98.4048393622531,30.857928488261564,0.0023439755976568336
1.6666666666666667,0.6667209059762136,98.39384950256574,30.877253847958116,0.002352670452971472
1.6833333333333333,0.6643584676735034,98.38291541018212,30.896700747036107,0.002361353623552151
1.7,0.6619955761096846,98.37203452331906,30.916273354852535,0.0023700262698197407
1.7166666666666666,0.6596322025477895,98.36120711715614,30.935980437624494,0.002378689368640765
1.7333333333333334,0.657268324794561,98.35043257935743,30.95582775479278,0.002387343909777822
1.75,0.6549039185830264,98.33971029548061,30.975820283734265,0.002395990796525086
1.7666666666666666,0.652538959143843,98.32903972059992,30.995961244237776,0.0024046307322307856
1.7833333333333334,0.650173421573308,98.31842037264558,31.016252264901766,0.0024132642366408185
1.8,0.6478072800108052,98.30785182742383,31.03669306402577,0.002421891610993393
1.8166666666666667,0.6454405073607834,98.29733373002803,31.057280936380437,0.0024305126056343787
1.8333333333333333,0.6430730641121558,98.28686666517768,31.078012798949146,0.002439127432391628
1.85,0.6407049425598041,98.27644870182695,31.098875037079836,0.0024477352310329978
1.8666666666666667,0.6383361021186148,98.26608062532198,31.11985823916399,0.002456334906104283
1.8833333333333333,0.6359665116137805,98.25576245072739,31.140946112856852,0.0024649248970356743
1.9,0.6335961369887552,98.24549430734376,31.16211681004188,0.002473503006403655
1.9166666666666667,0.6312249433585855,98.23527645985874,31.183343166959787,0.002482066403991481
1.9333333333333333,0.6288528947243186,98.22510931854733,31.204592019654456,0.0024906115455357
1.95,0.6264799539098052,98.21499344817506,31.22582374642326,0.002499134114575717
1.9666666666666666,0.6241060828148489,98.2049295711474,31.246992434096057,0.0025076286069141457
1.9833333333333334,0.621731219168256,98.19491987926281,31.268044020296543,0.002516089416123516
2.0,0.6193553716173947,98.18496273385111,31.28892989492425,0.002524511356370065
2.0166666666666666,0.6169784811135776,98.17506047294023,31.309595001417904,0.0025328876777240845
2.033333333333333,0.6146005139609896,98.16521415840523,31.329989968858342,0.0025412125368859204
2.05,0.6122214380987551,98.15542483710071,31.35007042598255,0.0025494805827900786
2.066666666666667,0.6098412263230237,98.14569339186299,31.36980431822053,0.0025576877613943225
2.0833333333333335,0.6074598560446015,98.13602048058323,31.389172793892953,0.0025658314740984534
2.1,0.6050773095908552,98.12640644296657,31.40817179889916,0.0025739108099938073
2.1166666666666667,0.6026935740055579,98.11685123508278,31.42681130281943,0.0025819261553989797
2.1333333333333333,0.6003086173491433,98.10735553663798,31.445104685137267,0.002589879239898261
2.15,0.5979224803800345,98.09791625465346,31.463091927249366,0.0025977747049616725
2.1666666666666665,0.5955351341263783,98.08853344117581,31.480797322547232,0.0026056151684714676
2.183333333333333,0.5931465779810021,98.07920550958858,31.49825407520524,0.002613404775667849
2.2,0.5907568112695208,98.06993069059723,31.515494393411757,0.002621164300928009
