Time [h],SOC,SOH,Temperature (°C),Resistance (Ohm)
0.0,0.9799999999999996,100.00000000000003,24.999999999999886,0.0010094035091383683
0.016666666666666666,0.9683545957088556,99.98119298172328,25.317290013223328,0.0010325510254862423
0.03333333333333333,0.9615467741584444,99.96020785562037,25.627828856411384,0.0010566530957773657
0.05,0.9552754287400759,99.93811994193948,25.928050908142723,0.0010811973189845316
0.06666666666666667,0.9491597285500035,99.9153018182012,26.218174225304267,0.0011060314180996087
0.08333333333333333,0.943091613613379,99.89197679549751,26.49894398788075,0.0011310752271676602
0.1,0.9370386221543978,99.86830826473863,26.77110535838989,0.0011562720258317205
0.11666666666666667,0.9309910959546838,99.84442268491433,27.03537783807957,0.0011815803507330852
0.13333333333333333,0.9249461925419206,99.82041854504928,27.292468150517152,0.0012069715405213857
0.15,0.9189030757880884,99.79637230591891,27.543046508819316,0.001232426294581996
0.16666666666666666,0.9128613836392173,99.77234350928867,27.787696250748468,0.0012579303552240214
0.18333333333333332,0.9068207453466594,99.74837776075088,28.02692744688943,0.001283473341364149
0.2,0.9007806478136681,99.72451063999647,28.261120940641717,0.001309044426196998
0.21666666666666667,0.8947404267463808,99.70076884960974,28.49059361222703,0.001334634626398034
0.23333333333333334,0.8886993242399628,99.67717200931418,28.715624788926277,0.001360237239346849
0.25,0.8826565505678837,99.65373403439077,28.936479940845857,0.0013858484195341198
0.26666666666666666,0.876611323005697,99.63046425258011,29.153419464811122,0.001411467141838375
0.2833333333333333,0.8705628985714386,99.60736834118632,29.366695526563205,0.0014370946339854254
0.3,0.8645106269039106,99.5844489970044,29.57653711612255,0.0014627321475362315
0.31666666666666665,0.8584538602206085,99.5617099945712,29.78310347701114,0.0014883805529112247
0.3333333333333333,0.8523921988299256,99.53914419819121,29.986713754485265,0.0015140516908352948
0.35,0.8463251589325526,99.5167524385659,30.18748918505645,0.0015397454143155167
0.36666666666666664,0.8402523886671783,99.49453157394035,30.385596017667865,0.0015654662143032674
0.38333333333333336,0.8341736068271126,99.47247772357984,30.581185929620688,0.0015912186889770262
0.4,0.8280886071962393,99.45058652411262,30.77439402208529,0.001617007245963798
0.4166666666666667,0.8219972557871214,99.42885325291334,30.96534009351626,0.0016428359990772945
0.43333333333333335,0.8158994527420211,99.4072730807462,31.15413640134767,0.0016687091383130635
0.45,0.8097951449846938,99.38584103949378,31.340884219323073,0.001694629495125119
0.4666666666666667,0.803684148705983,99.3645557126998,31.525627297170388,0.0017205989047841045
0.48333333333333334,0.7975668380612598,99.34340454259922,31.708548753063837,0.0017466287755024176
0.5,0.7914430873811159,99.32238650507398,31.889670989693855,0.001772717623499505
0.5166666666666667,0.7853129618839145,99.30149698376705,32.06906123450358,0.001798868391436573
0.5333333333333333,0.77917653432151,99.28073130445999,32.24678530245137,0.0018250842572344903
0.55,0.7730338860561472,99.26008473701705,32.4229074076174,0.0018513684802478796
0.5666666666666667,0.7668851023656473,99.23955289926272,32.59748515177432,0.0018777239077558633
0.5833333333333334,0.7607302619603155,99.21913171010345,32.77057289246676,0.001904153208320479
0.6,0.754569436061224,99.19881736789546,32.94222275619194,0.001930657746789581
0.6166666666666667,0.7484024832386679,99.17860981902024,33.11244022096008,0.001957237708082393
0.6333333333333333,0.7422298550798437,99.15849906261481,33.281369253789194,0.0019839034505099284
0.65,0.7360513560842925,99.13848637984304,33.4490120970633,0.002010652129121536
0.6666666666666666,0.7298669848561302,99.11856994813596,33.61542796260193,0.0020374860538598352
0.6833333333333333,0.7236766959497822,99.09874899476398,33.780684301169515,0.002064407705273967
0.7,0.7174804045332982,99.0790236731617,33.944867484593146,0.002091420684354995
0.7166666666666667,0.7112779850519494,99.0593949716582,34.10809312150678,0.0021185307468484333
0.7333333333333333,0.7050692733013784,99.0398644501491,34.2705161505487,0.002145747004187957
0.75,0.6988540742633763,99.02043381437298,34.43233087316685,0.0021730822927312956
0.7666666666666667,0.6926321495957998,99.0011048350116,34.593762226080116,0.002200553123077585
0.7833333333333333,0.6864032943847,98.98187808333415,34.75505036323881,0.0022281784047864205
0.8,0.6801672248306776,98.96275456039324,34.916436844442956,0.0022559781359949393
0.8166666666666667,0.6739236539601788,98.94373465288214,35.07814851332603,0.0022839722472639845
0.8333333333333334,0.6676722700826099,98.92481857519846,35.24038812400755,0.0023121794899933603
0.85,0.6614127357535413,98.906006563517,35.403325263441445,0.0023406163633977457
0.8666666666666667,0.6551446869241225,98.88729911530578,35.567088853586256,0.002369296092312278
0.8833333333333333,0.6488677330616008,98.8686972623612,35.731759537347614,0.002398227497906366
0.9,0.6425814574758166,98.85020292051436,35.89735844424757,0.0024203712658551753
0.9000000000002778,0.6425814574758166,98.85020292051436,35.89735844424757,0.002427707073502555
0.9166666666666666,0.6422419882204516,98.83105272800913,35.93784860507486,0.0024460327842229365
0.9333333333333333,0.6393971893917252,98.81212257261551,35.97496106831568,0.002463924854589134
0.95,0.6362736097255782,98.79341165812995,36.01141784944804,0.002481632549552845
0.9666666666666667,0.633068864631934,98.7749168424927,36.0476878796523,0.00249920062687059
0.9833333333333333,0.6298390116280411,98.75663499388673,36.08383024571714,0.0025166359664394538
1.0,0.6266016210633386,98.73856344518285,36.119807733427706,0.002533935928565429
1.0166666666666666,0.6233619882035167,98.72070030535036,36.15554018168217,0.0025510930088470294
1.0333333333333334,0.6201216528444138,98.70304459098051,36.19091583731222,0.0025680957543325494
1.05,0.6168810413632977,98.68559621867225,36.22579587710089,0.0025849291749691
1.0666666666666667,0.6136401695145739,98.6683558380438,36.26002286598077,0.002601575194098509
1.0833333333333333,0.6103989480295444,98.6513257702361,36.29343090481558,0.0026180154689550155
1.1,0.6071572649736029,98.63450425618521,36.325891285110345,0.002634235400485164
1.1166666666666667,0.6039150077582396,98.61789252840384,36.35730563336,0.00265022307047058
1.1333333333333333,0.6006720660294529,98.60148902860692,36.387637390276325,0.002665974490742732
1.15,0.5974283353595056,98.58529008717679,36.416919655934066,0.0026814943341470507
1.1666666666666667,0.594183714567229,98.56928989654716,36.4452372933676,0.0026967942596586134
1.1833333333333333,0.5909381055183439,98.55348070032612,36.472708689026945,0.002711890946806632
1.2,0.5876914133578711,98.53785324444749,36.49946447397076,0.0027268036028868284
1.2166666666666666,0.5844435470711365,98.52239734449967,36.525632410807646,0.002741551541542512
1.2333333333333334,0.5811944098682086,98.50710358750607,36.55132450880183,0.0027561541154652565
1.25,0.5779439369794476,98.49195835501163,36.57664971822669,0.0027706302186952412
1.2666666666666666,0.5746920474415239,98.47695332148858,36.60167976572791,0.002784993234844762
1.2833333333333334,0.5714386775336008,98.46207965855314,36.626474714115886,0.002799255744784553
1.3,0.5681837632737797,98.4473284249104,36.65108718266265,0.002807660938352963
1.3000000000002778,0.5681837632737797,98.4473284249104,36.65108718266265,0.002813497190508521
1.3166666666666667,0.566432184278752,98.43251953676824,36.65709107595859,0.0028257595006630685
1.3333333333333333,0.564046518107325,98.41783232293568,36.66236409691544,0.0028378550302472594
1.35,0.5615899718113766,98.40326228522073,36.667465079335045,0.002849846190702688
1.3666666666666667,0.559112524116477,98.38880482637975,36.67249150521201,0.0028617466938459673
1.3833333333333333,0.5566285912025921,98.37445565217784,36.677469832872646,0.0028735625080828836
1.4,0.5541423747374088,98.36021079794907,36.6824122156612,0.0028852978367110093
1.4166666666666667,0.551655277004006,98.34606663806915,36.68732747902146,0.0028969563068961734
1.4333333333333333,0.5491677860164027,98.33201981087822,36.692222439783734,0.0029085411311753737
1.45,0.5466799615289534,98.3180672302299,36.69710239363758,0.002920055164441436
1.4666666666666666,0.5441917678401577,98.30420605300984,36.70197162595076,0.002931499156753586
1.4833333333333334,0.5417031582391579,98.29043826978888,36.70683343163694,0.0029428773277849433
1.5,0.5392141555315051,98.27675199431474,36.711691240432344,0.0029541936926806072
1.5166666666666666,0.5367247150958511,98.26314979452451,36.71654713063282,0.0029654482633224605
1.5333333333333334,0.5342348168590141,98.24962955746706,36.721402979613686,0.0029766427454487143
1.55,0.531744442377742,98.23618951611961,36.72626030666083,0.002987778692810298
1.5666666666666667,0.5292535737082705,98.2228278511233,36.73112053762992,0.0029988576721933923
1.5833333333333333,0.5267621935814668,98.20954274478282,36.73598502448442,0.003009881211734524
1.6,0.5242702869655035,98.19633246286378,36.74085491036777,0.0030208507204211098
1.6166666666666667,0.5217778423206744,98.18319543710533,36.74573109491212,0.0030317658440499385
1.6333333333333333,0.5192848187450323,98.17013432812334,36.750614751853334,0.003042629357935537
1.65,0.5167912690392426,98.15713973837359,36.75550581775258,0.0030534440212937907
1.6666666666666667,0.514297158820391,98.14421401994291,36.76040529262474,0.0030642094264780066
1.6833333333333333,0.5118024834048572,98.13135609198024,36.76531369545165,0.0030749264758439068
1.7,0.5093072389900997,98.11856485927905,36.77023152809062,0.0030855960792820682
1.7166666666666666,0.50681142313564,98.10583922036601,36.77515924580979,0.003096219165042757
1.7333333333333334,0.5043150337552398,98.09317802333516,36.78009731638093,0.0031067966751977235
1.75,0.501818070208482,98.08058013869463,36.785046168222436,0.0031173295119166933
1.7666666666666666,0.4993205332998212,98.06804450689917,36.79000618438323,0.003127815161091944
1.7833333333333334,0.49682234403930275,98.05557861133876,36.79497936778739,0.00313825568726805
1.8,0.494323608619484,98.04317031555588,36.7999639588034,0.003143760905512589
1.8000000000002778,0.494323608619484,98.04317031555588,36.7999639588034,0.003148653979744
1.8166666666666667,0.49182428058358413,98.03082391007622,36.80496132742525,0.003159010724142408
1.8333333333333333,0.4893244081515274,98.01853375325985,36.80997083605877,0.003169329899211944
1.85,0.4868240332868791,98.00629523266903,36.81499192262095,0.003179611409134132
1.8666666666666667,0.48432310578082705,97.99411300966082,36.82002619572569,0.003189853626333172
1.8833333333333333,0.4818216220265336,97.9819869870473,36.82507422779349,0.0032000570979820522
1.9,0.4793195899542275,97.96991603244906,36.830136296388446,0.0032102225121254193
1.9166666666666667,0.47681701219171907,97.95789960682737,36.835212762745584,0.0032203503853426613
1.9333333333333333,0.47431389243867733,97.94593703736787,36.840304025806745,0.003230441342081327
1.95,0.47181023520295823,97.93402752674587,36.84541061557064,0.0032404959368183585
1.9666666666666666,0.46930604301894197,97.92217062085646,36.85053289346274,0.003250513370018319
1.9833333333333334,0.4668012857174069,97.91036888318273,36.85567252465404,0.0032604953848123443
2.0,0.4642960259914195,97.89861585852049,36.86082855958,0.0032704440562477057
2.0166666666666666,0.46179025130695983,97.88691247532807,36.86600231330516,0.0032803591547431025
2.033333333333333,0.4592839582501154,97.8752587815296,36.87119477545798,0.0032902410130968545
2.05,0.4567771499091218,97.86365419294238,36.87640679077987,0.0033000901491465175
2.066666666666667,0.45426982788113046,97.85209825045303,36.881639395495085,0.00330990706253565
2.0833333333333335,0.4517619938779613,97.84059047902129,36.886893666372714,0.0033196922338996956
2.1,0.44925364921514704,97.82913048416495,36.892170553859046,0.003329464941110049
