Time [h],SOC,SOH,Temperature (°C),Resistance (Ohm)
0.0,0.9799999999999996,100.00000000000003,-2.2737367544323206e-13,0.00034717812545093926
0.016666666666666666,0.9715388278964812,99.9979518021656,0.30975085075368725,0.00035278043656011295
0.03333333333333333,0.9666255035711053,99.99560638990147,0.6142450494986633,0.0003584138597083639
0.05,0.9621040429761012,99.99304158284981,0.9117404474292812,0.00036403876092767093
0.06666666666666667,0.9576948024118637,99.99027555014078,1.2024187758685798,0.000369653631938977
0.08333333333333333,0.9533182201333681,99.98731570517137,1.4866970135351494,0.000375262387000564
0.1,0.9489496792148774,99.98416684787856,1.7649616840218982,0.0003808689847419213
0.11666666666666667,0.9445821516051345,99.98083304169029,2.037550286544217,0.0003864768489983918
0.13333333333333333,0.9402136580278339,99.97731817295634,2.3047621475500364,0.0003920889532741843
0.15,0.9358437688943684,99.97362611633307,2.566869624826438,0.0003977080293187919
0.16666666666666666,0.9314724420748842,99.96976014656674,2.824108662581864,0.00040333616503292056
0.18333333333333332,0.9270997238732933,99.96572558723918,3.076755798963916,0.000408976372568003
0.2,0.9227256090240975,99.96152582294704,3.3250221400540454,0.0004146306782545055
0.21666666666666667,0.9183500378150121,99.95716507388227,3.569131592450219,0.00042030141738425784
0.23333333333333334,0.9139729024475665,99.95264752430043,3.809290490393323,0.00042599070855436444
0.25,0.9095940510809777,99.94797747587478,4.0456913707621425,0.00043170048212382977
0.26666666666666666,0.9052132890103288,99.94315948129253,4.278514978531518,0.0004374325122248397
0.2833333333333333,0.9008303881922984,99.93819813754251,4.507920425255634,0.0004431882158647058
0.3,0.8964450902599392,99.93309812640862,4.734049167478361,0.00044896876735461177
0.31666666666666665,0.8920570977385667,99.92786363759963,4.957015308581674,0.0004547746932917855
0.3333333333333333,0.8876661409150105,99.92250068875339,5.1769664514606575,0.0004606073035433341
0.35,0.8832719220358537,99.9170132557372,5.393996475717074,0.0004664669549579939
0.36666666666666664,0.8788741472346624,99.91140607936704,5.608214318099044,0.00047235429029051653
0.38333333333333336,0.8744725351551769,99.90568384309742,5.819725627913783,0.0004782699429593676
0.4,0.8700668227539354,99.89985111272136,6.028631571438439,0.0004842145143875678
0.4166666666666667,0.8656567679863754,99.89391234343364,6.235028794278321,0.0004901885694973873
0.43333333333333335,0.8612421521587323,99.88787187932778,6.439009192117339,0.0004961926273547894
0.45,0.8568227804108682,99.88173396307964,6.640660041986109,0.0005022272913756815
0.4666666666666667,0.852398425178207,99.87550157000229,6.840035674283627,0.0005082921798151495
0.48333333333333334,0.8479690569953063,99.86918116396636,7.037271671608323,0.0005143888649916994
0.5,0.8435345025095378,99.86277541796227,7.232411448437688,0.0005205171577959061
0.5166666666666667,0.839094682122667,99.8562876986696,7.425515487183702,0.0005266771921798801
0.5333333333333333,0.8346495364348455,99.84972146854676,7.616644072617078,0.0005328691151028676
0.55,0.8301990226286078,99.84308009522928,7.805854181065797,0.0005390930053914508
0.5666666666666667,0.8257431078167738,99.83636708424407,7.993203795503575,0.0005453490074797089
0.5833333333333334,0.8212817871232151,99.82958559741294,8.178743125825406,0.0005516371449029884
0.6,0.8168150737989743,99.82273867697009,8.362519186274994,0.0005571126154869067
0.6000000000002778,0.8168150737989743,99.82273867697009,8.362519186274994,0.0005580941682319216
0.6166666666666667,0.8152133229644165,99.81471065086666,8.447699089423338,0.0005622247536158871
0.6333333333333333,0.8124023922270965,99.80674948150777,8.530878351291392,0.0005663121058251129
0.65,0.8094554031059823,99.79883546467624,8.613149249294679,0.0005703863518932756
0.6666666666666666,0.8064677224725475,99.79096479907017,8.694708570493333,0.0005744527516921136
0.6833333333333333,0.8034664013350601,99.78313622692392,8.77560669189512,0.0005785124968337018
0.7,0.8004599464895681,99.77534888420347,8.855868385645806,0.0005825660819703941
0.7166666666666667,0.7974510286819501,99.76760197650091,8.935511782985031,0.0005866138343544522
0.7333333333333333,0.7944403611139651,99.75989472130742,9.014552386266303,0.0005906560238088273
0.75,0.7914281756407153,99.75222633887526,9.09300426973192,0.0005946928931914257
0.7666666666666667,0.7884145723377834,99.74459605809787,9.170880299574662,0.0005987242933095063
0.7833333333333333,0.7853994273512541,99.73700602607715,9.24814860870157,0.0006027495390841855
0.8,0.7823829344064396,99.72945014311168,9.324901182219207,0.0006067714559347404
0.8166666666666667,0.7793650083120081,99.72192956500841,9.40111981180604,0.0006107891405610544
0.8333333333333334,0.7763456242087183,99.71444409494984,9.47680662888871,0.0006148024747757318
0.85,0.773324777233021,99.70699306581128,9.551970641592277,0.0006188115948574586
0.8666666666666667,0.7703024652789336,99.6995758178082,9.626620573435332,0.0006228166341647129
0.8833333333333333,0.7672786876326981,99.69219170619563,9.700764857115416,0.0006268177290868714
0.9,0.7642534446797373,99.68484004407412,9.77441239550916,0.0006308150414528847
0.9166666666666666,0.7612267399702892,99.67752015215386,9.847571780324131,0.0006348083661600888
0.9333333333333333,0.7581984466205047,99.67023414191466,9.920208688164848,0.0006387969426985668
0.95,0.7551688186863957,99.6629761800607,9.99241152884997,0.0006427836170117418
0.9666666666666667,0.7521377597166268,99.65574782964123,10.064154346231646,0.0006467672275330817
0.9833333333333333,0.7491052588369077,99.64854890007483,10.135438595885773,0.0006507476774464871
1.0,0.7460713245891697,99.64137882222518,10.20627173645289,0.0006547250870217052
1.0166666666666666,0.7430359626999583,99.63423711551943,10.276660030856704,0.0006586995357801176
1.0333333333333334,0.7399991791575132,99.62712329865423,10.346609904162676,0.0006626711122654986
1.05,0.7369609797709404,99.62003690003232,10.41612774133597,0.000666639914020947
1.0666666666666667,0.7339213708250916,99.61297740319065,10.48522065947293,0.0006706057152280161
1.0833333333333333,0.7308802179353485,99.60594694391223,10.553854221170411,0.0006745676629846713
1.1,0.7278377802648366,99.5989403539206,10.622110104744081,0.0006785285411019297
1.1166666666666667,0.7247939749920994,99.59195885346364,10.689969116115265,0.0006824873756827296
1.1333333333333333,0.7217487722354917,99.58500267660013,10.757428163911015,0.0006864438887369037
1.15,0.7187021780208566,99.57807145574179,10.824494092428438,0.0006903981775704853
1.1666666666666667,0.7156541919124728,99.5711649092423,10.891173004361747,0.0006943503010800812
1.1833333333333333,0.712604812933741,99.56428281970719,10.957470234061248,0.0006983002913881284
1.2,0.7095540384628377,99.5574249583248,11.023392538659266,0.0007022482253231435
1.2166666666666666,0.7065018645030583,99.55059113545687,11.088946869192569,0.0007061940545329537
1.2333333333333334,0.7034482328656918,99.5437821063621,11.154127022578677,0.0007101375187492614
1.25,0.7003932284709435,99.53699622610256,11.218964570952778,0.0007140795875923672
1.2666666666666666,0.69733680956488,99.53023404078243,11.283458593331943,0.0007180199543203586
1.2833333333333334,0.6942789556250645,99.52349575282453,11.347615058744907,0.0007219585867322042
1.3,0.6912196497280267,99.51678151613437,11.41144232129193,0.0007249571628478857
1.3000000000002778,0.6912196497280267,99.51678151613437,11.41144232129193,0.0007259342108046429
1.3166666666666667,0.6896234886048347,99.50981578335823,11.441099987386792,0.0007288436803886663
1.3333333333333333,0.6874089732943853,99.50290081847567,11.47008216930385,0.0007317235488833345
1.35,0.685125334413244,99.49603327022066,11.498839016137424,0.0007345888751772198
1.3666666666666667,0.6828209906791937,99.48921206062167,11.52744823385109,0.0007374423401383945
1.3833333333333333,0.6805099105036369,99.48243647272108,11.555929961219135,0.0007402847018299583
1.4,0.6781964961219586,99.47570588778154,11.58429513714492,0.0007431164039086766
1.4166666666666667,0.6758820300480839,99.46901973747725,11.612552854445084,0.0007459378220163762
1.4333333333333333,0.6735669375741593,99.4623774951217,11.640712285418147,0.0007487493315084257
1.45,0.6712512989200711,99.45577865044467,11.66878331139327,0.0007515513206410978
1.4666666666666666,0.6689351265511074,99.44922278984603,11.696775008023224,0.000754343827489877
1.4833333333333334,0.6666183786911649,99.44271171623029,11.724692908539282,0.0007571273989722492
1.5,0.6643010843158857,99.43624062395486,11.752555157889276,0.0007599029897459549
1.5166666666666666,0.661983184642484,99.42981147815239,11.780368766483207,0.0007626705491327528
1.5333333333333334,0.6596646535111637,99.42342395067791,11.808143470443156,0.0007654304317261211
1.55,0.6573454634957883,99.41707783227247,11.835888651779157,0.0007681829655783783
1.5666666666666667,0.6550255854256062,99.4107729302331,11.86361394117938,0.0007709284858281197
1.5833333333333333,0.652704988219577,99.4045090775007,11.891329098154358,0.0007736673239438743
1.6,0.6503836410535981,99.39828617040403,11.919042873876094,0.0007763997635730096
1.6166666666666667,0.6480615127776418,99.39210416514331,11.946762950201503,0.0007791256998439222
1.6333333333333333,0.6457385246316711,99.38596543343823,11.974496816381418,0.0007818456920285402
1.65,0.6434147391566238,99.37986527953642,12.002247352592804,0.0007845601232033941
1.6666666666666667,0.6410900769390958,99.3738062187634,12.030018522618263,0.0007872686834069949
1.6833333333333333,0.638764500515248,99.36778864381225,12.05781166220703,0.0007899712973506197
1.7,0.6364379762112127,99.36181280368669,12.085625585741639,0.0007926678035444474
1.7166666666666666,0.6341104686887243,99.35587907435084,12.11345651564767,0.0007953579135761884
1.7333333333333334,0.6317819413968796,99.34998794253512,12.141297765516526,0.0007980412016655227
1.75,0.6294523567403055,99.34414000516414,12.169139449486067,0.0008007170948564095
1.7666666666666666,0.6271216763884181,99.33833595394016,12.196968547916015,0.0008033847430578118
1.7833333333333334,0.6247898381483207,99.33257748822274,12.224767697111076,0.000806043374996471
1.8,0.6224568485440181,99.32686363879917,12.252518816556574,0.0008078669604371951
1.8000000000002778,0.6224568485440181,99.32686363879917,12.252518816556574,0.0008086920483676117
1.8166666666666667,0.6201226252006834,99.32119704658838,12.280198764173463,0.0008113296224377129
1.8333333333333333,0.617787176789205,99.31557679300715,12.307786097489497,0.0008139551503127315
1.85,0.6154504475254987,99.31000453310324,12.335256303510903,0.0008165673017554848
1.8666666666666667,0.613112401104119,99.30448114511816,12.362585439862869,0.000819164900042617
1.8833333333333333,0.6107730049084135,99.29900729281258,12.389750776812207,0.0008217468684352143
1.9,0.6084322309647572,99.29358339716993,12.416733361315153,0.0008243123327622691
1.9166666666666667,0.6060900546942384,99.28820961125845,12.443519350555505,0.0008268606803591521
1.9333333333333333,0.603746454683839,99.28288579404261,12.470099525617172,0.0008293915561524918
1.95,0.6014014128676904,99.27761146445098,12.496469892326331,0.0008319048991636654
1.9666666666666666,0.5990549148454419,99.27238577032239,12.522631863044637,0.0008344004716755482
1.9833333333333334,0.5967068455174107,99.2672107831134,12.548577800027033,0.000836878776566231
2.0,0.5943574029778453,99.26207836401412,12.57434531092963,0.0008393420786483429
2.0166666666666666,0.5920064784406697,99.25699003098339,12.599932199964087,0.0008417902716849775
2.033333333333333,0.5896540642134193,99.25194380466829,12.625352097346934,0.0008442243985983513
2.05,0.5873001580718923,99.24693742723878,12.650619700032678,0.0008466455988227633
2.066666666666667,0.5849447572114146,99.24196859650507,12.67574929383926,0.0008490550180150709
2.0833333333333335,0.5825878595221325,99.23703497142844,12.70075452151201,0.0008514537925375762
2.1,0.5802294634275164,99.23213421069053,12.725648096573252,0.0008538475708066087
